#EXPORTTYPE:DATA SINGLE
#FTYPE:ANSI
#DECIMAL:POINT
#SEPARATOR:SEMICOLON
#MTYPE:DSC
#PROJECT:
#CORR. FILE:005925_bline_Al2O3_900_7.5_N2_20_air_20.ngb-bs1
#TEMPCAL:TCALZERO.TCX
#SENSITIVITY:SENSZERO.EXX
#LABORATORY:13
#OPERATOR:
#REMARK:
#SAMPLE:4
#SAMPLE MASS /mg:7.42
#MATERIAL:
#REFERENCE:
#REFERENCE MASS /mg:0
#TYPE OF CRUCIBLE:DSC/TG pan Al2O3
#SAMPLE CRUCIBLE MASS /mg:0
#REFERENCE CRUCIBLE MASS /mg:0
#DSC RANGE /V:5000
#TG RANGE /mg:5000
#TAU-R:---
#CORR. CODE:020
#EXO:+1
#RANGE:35C/7,5(K/min)/920�C
#SEGMENT:S1/1
#SEG. 1:35�C/7,5(K/min)/920�C

##Temp./�C;Time/min;DSC/(uV/mg);Sensit./(uV/mW)
 34.11100;  0.00000; 5.1411e-004;1.00000
 34.14896;  0.50000;-2.0564e-004;1.00000
 34.59436;  1.00000;-2.2621e-003;1.00000
 35.68375;  1.50000;-9.5624e-003;1.00000
 37.32905;  2.00000;-1.5218e-002;1.00000
 39.42311;  2.50000;-2.0667e-002;1.00000
 41.82416;  3.00000;-2.5397e-002;1.00000
 44.48642;  3.50000;-2.8585e-002;1.00000
 47.36371;  4.00000;-2.9304e-002;1.00000
 50.40853;  4.50000;-2.6631e-002;1.00000
 53.59856;  5.00000;-3.0024e-002;1.00000
 56.91062;  5.50000;-4.2054e-002;1.00000
 60.33416;  6.00000;-4.0923e-002;1.00000
 63.83709;  6.50000;-4.3699e-002;1.00000
 67.40722;  7.00000;-4.9046e-002;1.00000
 71.01816;  7.50000;-4.8121e-002;1.00000
 74.67300;  8.00000;-4.9457e-002;1.00000
 78.36113;  8.50000;-5.2953e-002;1.00000
 82.07220;  9.00000;-5.5421e-002;1.00000
 85.82376;  9.50000;-3.7633e-002;1.00000
 89.60155; 10.00000;-4.1951e-002;1.00000
 93.40258; 10.50000;-4.7607e-002;1.00000
 97.22127; 11.00000;-4.8429e-002;1.00000
101.06360; 11.50000;-5.2336e-002;1.00000
104.91793; 12.00000;-5.5318e-002;1.00000
108.78251; 12.50000;-5.5935e-002;1.00000
112.64249; 13.00000;-5.6861e-002;1.00000
116.50784; 13.50000;-5.6346e-002;1.00000
120.36778; 14.00000;-5.2028e-002;1.00000
124.22933; 14.50000;-4.5447e-002;1.00000
128.09969; 15.00000;-4.1951e-002;1.00000
131.96873; 15.50000;-4.1746e-002;1.00000
135.85067; 16.00000;-4.7607e-002;1.00000
139.73913; 16.50000;-4.3185e-002;1.00000
143.63669; 17.00000;-3.8867e-002;1.00000
147.54049; 17.50000;-4.6887e-002;1.00000
151.44664; 18.00000;-5.0383e-002;1.00000
155.35118; 18.50000;-3.6296e-002;1.00000
159.25395; 19.00000;-3.2800e-002;1.00000
163.15880; 19.50000;-3.7427e-002;1.00000
167.05856; 20.00000;-3.6193e-002;1.00000
170.95380; 20.50000;-3.7016e-002;1.00000
174.86220; 21.00000;-3.4857e-002;1.00000
178.75347; 21.50000;-3.1669e-002;1.00000
182.65780; 22.00000;-3.2183e-002;1.00000
186.56078; 22.50000;-3.0641e-002;1.00000
190.46731; 23.00000;-2.7556e-002;1.00000
194.36991; 23.50000;-2.7042e-002;1.00000
198.27002; 24.00000;-1.4601e-002;1.00000
202.16893; 24.50000;-1.6246e-002;1.00000
206.06338; 25.00000;-1.4601e-002;1.00000
209.95464; 25.50000;-1.6452e-002;1.00000
213.84576; 26.00000;-1.3573e-002;1.00000
217.73087; 26.50000;-1.1722e-002;1.00000
221.61424; 27.00000;-1.0385e-002;1.00000
225.49647; 27.50000;-6.6834e-003;1.00000
229.38404; 28.00000;-3.5988e-003;1.00000
233.26766; 28.50000;-1.0282e-003;1.00000
237.15058; 29.00000;-5.1411e-004;1.00000
241.03071; 29.50000; 1.9536e-003;1.00000
244.90976; 30.00000; 4.7298e-003;1.00000
248.78506; 30.50000; 8.7399e-003;1.00000
252.66656; 31.00000; 1.2133e-002;1.00000
256.53507; 31.50000; 1.5115e-002;1.00000
260.40607; 32.00000; 1.8302e-002;1.00000
264.27320; 32.50000; 2.2518e-002;1.00000
268.14446; 33.00000; 2.5603e-002;1.00000
272.01558; 33.50000; 2.7968e-002;1.00000
275.88229; 34.00000; 3.1875e-002;1.00000
279.74731; 34.50000; 3.5576e-002;1.00000
283.61204; 35.00000; 3.8455e-002;1.00000
287.47454; 35.50000; 3.9895e-002;1.00000
291.33366; 36.00000; 4.4625e-002;1.00000
295.18742; 36.50000; 4.9560e-002;1.00000
299.03844; 37.00000; 5.1411e-002;1.00000
302.89008; 37.50000; 5.5730e-002;1.00000
306.74185; 38.00000; 5.9740e-002;1.00000
310.59553; 38.50000; 6.1590e-002;1.00000
314.44818; 39.00000; 6.6732e-002;1.00000
318.30158; 39.50000; 7.1873e-002;1.00000
322.14887; 40.00000; 7.2798e-002;1.00000
325.99403; 40.50000; 7.5060e-002;1.00000
329.83591; 41.00000; 7.6294e-002;1.00000
333.67614; 41.50000; 7.9481e-002;1.00000
337.51342; 42.00000; 8.2052e-002;1.00000
341.34351; 42.50000; 8.6782e-002;1.00000
345.16604; 43.00000; 8.9250e-002;1.00000
348.99240; 43.50000; 9.2643e-002;1.00000
352.81507; 44.00000; 9.4288e-002;1.00000
356.63256; 44.50000; 9.7989e-002;1.00000
360.45020; 45.00000;     0.10221;1.00000
364.26445; 45.50000;     0.10416;1.00000
368.07553; 46.00000;     0.10930;1.00000
371.88493; 46.50000;     0.11259;1.00000
375.69218; 47.00000;     0.11917;1.00000
379.50536; 47.50000;     0.12267;1.00000
383.31778; 48.00000;     0.12719;1.00000
387.12696; 48.50000;     0.13017;1.00000
390.93715; 49.00000;     0.13274;1.00000
394.73795; 49.50000;     0.13758;1.00000
398.53796; 50.00000;     0.14148;1.00000
402.33673; 50.50000;     0.14786;1.00000
406.13316; 51.00000;     0.15146;1.00000
409.93214; 51.50000;     0.15814;1.00000
413.73369; 52.00000;     0.16585;1.00000
417.52987; 52.50000;     0.16955;1.00000
421.32731; 53.00000;     0.17572;1.00000
425.12158; 53.50000;     0.18025;1.00000
428.90907; 54.00000;     0.18559;1.00000
432.69609; 54.50000;     0.19043;1.00000
436.48354; 55.00000;     0.19557;1.00000
440.27147; 55.50000;     0.19937;1.00000
444.06617; 56.00000;     0.20472;1.00000
447.85389; 56.50000;     0.20904;1.00000
451.63731; 57.00000;     0.21253;1.00000
455.42415; 57.50000;     0.21870;1.00000
459.21182; 58.00000;     0.22189;1.00000
462.99486; 58.50000;     0.22662;1.00000
466.78031; 59.00000;     0.23176;1.00000
470.55442; 59.50000;     0.23680;1.00000
474.32873; 60.00000;     0.24040;1.00000
478.10582; 60.50000;     0.25757;1.00000
481.87747; 61.00000;     0.26466;1.00000
485.65156; 61.50000;     0.27464;1.00000
489.42355; 62.00000;     0.28461;1.00000
493.19251; 62.50000;     0.31268;1.00000
496.96454; 63.00000;     0.34507;1.00000
500.74402; 63.50000;     0.39288;1.00000
504.52424; 64.00000;     0.44769;1.00000
508.30342; 64.50000;     0.51997;1.00000
512.08816; 65.00000;     0.60079;1.00000
515.87489; 65.50000;     0.67996;1.00000
519.66547; 66.00000;     0.76479;1.00000
523.46282; 66.50000;     0.84653;1.00000
527.26785; 67.00000;     0.91676;1.00000
531.11107; 67.50000;     0.95450;1.00000
535.00133; 68.00000;     0.95069;1.00000
538.92818; 68.50000;     0.98576;1.00000
542.74282; 69.00000;     1.13742;1.00000
546.55013; 69.50000;     1.20497;1.00000
550.38302; 70.00000;     1.27612;1.00000
554.18429; 70.50000;     1.36897;1.00000
557.93544; 71.00000;     1.41853;1.00000
561.66284; 71.50000;     1.45925;1.00000
565.36965; 72.00000;     1.49226;1.00000
569.06301; 72.50000;     1.51477;1.00000
572.75413; 73.00000;     1.52650;1.00000
576.45703; 73.50000;     1.53102;1.00000
580.16107; 74.00000;     1.53482;1.00000
583.86165; 74.50000;     1.53729;1.00000
587.57162; 75.00000;     1.54696;1.00000
591.28702; 75.50000;     1.55899;1.00000
595.01128; 76.00000;     1.57133;1.00000
598.73380; 76.50000;     1.58788;1.00000
602.46202; 77.00000;     1.60526;1.00000
606.19016; 77.50000;     1.62593;1.00000
609.92198; 78.00000;     1.64793;1.00000
613.66020; 78.50000;     1.67271;1.00000
617.39442; 79.00000;     1.69770;1.00000
621.12911; 79.50000;     1.72155;1.00000
624.86455; 80.00000;     1.74067;1.00000
628.59634; 80.50000;     1.75641;1.00000
632.32544; 81.00000;     1.76494;1.00000
636.05278; 81.50000;     1.77101;1.00000
639.77706; 82.00000;     1.76885;1.00000
643.49529; 82.50000;     1.76402;1.00000
647.21445; 83.00000;     1.75281;1.00000
650.93258; 83.50000;     1.73584;1.00000
654.64953; 84.00000;     1.71456;1.00000
658.36834; 84.50000;     1.68875;1.00000
662.08907; 85.00000;     1.65585;1.00000
665.81225; 85.50000;     1.61523;1.00000
669.52587; 86.00000;     1.56547;1.00000
673.23455; 86.50000;     1.50747;1.00000
676.93171; 87.00000;     1.43498;1.00000
680.62133; 87.50000;     1.35067;1.00000
684.30083; 88.00000;     1.23983;1.00000
687.97511; 88.50000;     1.10050;1.00000
691.63860; 89.00000;     0.92684;1.00000
695.29824; 89.50000;     0.72047;1.00000
698.95684; 90.00000;     0.50516;1.00000
702.61040; 90.50000;     0.31834;1.00000
706.27711; 91.00000;     0.19238;1.00000
709.94662; 91.50000;     0.12472;1.00000
713.63249; 92.00000; 9.3157e-002;1.00000
717.33109; 92.50000; 8.0201e-002;1.00000
721.03893; 93.00000; 7.5986e-002;1.00000
724.75496; 93.50000; 7.2284e-002;1.00000
728.46765; 94.00000; 7.0433e-002;1.00000
732.18380; 94.50000; 6.7451e-002;1.00000
735.89875; 95.00000; 6.7040e-002;1.00000
739.61251; 95.50000; 6.6115e-002;1.00000
743.32685; 96.00000; 6.5909e-002;1.00000
747.03878; 96.50000; 6.6012e-002;1.00000
750.74775; 97.00000; 6.6115e-002;1.00000
754.45156; 97.50000; 6.7760e-002;1.00000
758.16385; 98.00000; 6.5292e-002;1.00000
761.88054; 98.50000; 6.5909e-002;1.00000
765.60308; 99.00000; 6.8377e-002;1.00000
769.32759; 99.50000; 6.7246e-002;1.00000
773.04714;100.00000; 6.4984e-002;1.00000
776.76682;100.50000; 6.4264e-002;1.00000
780.48636;101.00000; 6.4264e-002;1.00000
784.20287;101.50000; 6.3441e-002;1.00000
787.92078;102.00000; 6.3441e-002;1.00000
791.63775;102.50000; 6.2516e-002;1.00000
795.35520;103.00000; 6.3544e-002;1.00000
799.07500;103.50000; 6.3441e-002;1.00000
802.79867;104.00000; 6.3750e-002;1.00000
806.51585;104.50000; 6.1796e-002;1.00000
810.23353;105.00000; 6.2516e-002;1.00000
813.94895;105.50000; 6.4058e-002;1.00000
817.66769;106.00000; 6.2207e-002;1.00000
821.39027;106.50000; 5.9740e-002;1.00000
825.10848;107.00000; 5.7580e-002;1.00000
828.83296;107.50000; 5.6861e-002;1.00000
832.55713;108.00000; 5.6038e-002;1.00000
836.28349;108.50000; 5.6861e-002;1.00000
840.00993;109.00000; 5.4393e-002;1.00000
843.73851;109.50000; 5.5524e-002;1.00000
847.46384;110.00000; 5.2234e-002;1.00000
851.17389;110.50000; 4.9355e-002;1.00000
854.88929;111.00000; 4.7092e-002;1.00000
858.60524;111.50000; 4.3699e-002;1.00000
862.32220;112.00000; 4.1334e-002;1.00000
866.03780;112.50000; 4.0820e-002;1.00000
869.75149;113.00000; 3.8455e-002;1.00000
873.46295;113.50000; 3.8044e-002;1.00000
877.16955;114.00000; 3.8147e-002;1.00000
880.87456;114.50000; 3.8764e-002;1.00000
884.58329;115.00000; 3.8558e-002;1.00000
888.29093;115.50000; 3.8353e-002;1.00000
891.99326;116.00000; 4.0615e-002;1.00000
895.69271;116.50000; 4.3905e-002;1.00000
899.39064;117.00000; 4.4728e-002;1.00000
903.08196;117.50000; 4.5653e-002;1.00000

